Illumination Mode,rear

Parameter,Lower Bound,Value,Upper Bound
EgShift,0.95,1.0,1.05
dDEAD,0.0,0.0,500.0
CIGS,300.0,199.99,2000.0
dSCR,0.0,199.99,2000.0
Ln,0.01,0.01,2000.0
Recomb,0.8,1.0,1.0

Wavelength,Experimental_IQE,IQE_fit,IQE_fit_SCR,IQE_fit_Ln,IQE_fit_metal_reflection,Absorbed_CIGS,ReTransmitted,Absorbed_Metal,Residual
310,0.19322473493722422,0.14651473771189033,0.14547815548180085,0.0,0.0010365822300894719,0.9839855359505043,1.798141349146658e-05,0.0014690208746181985,-0.046709997225333894
320,0.40392495044109067,0.33018500911629384,0.32750426615465694,0.0,0.002680742961636868,0.9833328521137026,5.289003279457144e-05,0.003727900850911637,-0.07373994132479683
330,0.5462828674213261,0.5020650108960896,0.49735010010055475,0.0,0.004714910795534847,0.9827617317281963,0.00010583059907316112,0.006342748504837183,-0.044217856525236576
340,0.6055037434397584,0.6236659069789668,0.6168597817867586,0.0,0.0068061251922082846,0.9818978264402277,0.000173859545121679,0.008777433475911445,0.01816216353920841
350,0.6590966906268688,0.7023671964444684,0.6934466773762851,0.0,0.008920519068183363,0.980656273018558,0.0002594653379877447,0.010989848217543875,0.043270505817599614
360,0.6771099817129859,0.7546268739062565,0.7434655028095698,0.0,0.011161371096686742,0.9790925797346762,0.0003697904126030608,0.013100795681140405,0.07751689219327063
370,0.6912100694111285,0.7890372392293576,0.7754649757503607,0.0,0.01357226347899701,0.9771831037746169,0.0005125339427850687,0.015199346827857244,0.09782716981822914
380,0.7032046198837955,0.8093959468696322,0.7933079302073484,0.0,0.01608801666228386,0.9748007578566725,0.0006928353813022102,0.017383197749065583,0.10619132698583678
390,0.723877055548049,0.8322718818283682,0.8131675055089372,0.0,0.019104376319430922,0.9722551837185271,0.00093901678387228,0.01992535138775967,0.10839482628031916
400,0.7392339706030462,0.8464652525929628,0.8239931672416465,0.0,0.02247208535131633,0.9693136138498643,0.0012616490434470605,0.022527668363589954,0.1072312819899166
410,0.7535359164128191,0.8517480813767165,0.8254827628572022,0.0,0.026265318519514334,0.9659499035379431,0.0016858886602854986,0.025033949962997827,0.0982121649638974
420,0.7656879880752048,0.8524865962505686,0.8221029523266113,0.0,0.03038364392395716,0.9619457491273337,0.002232156734146975,0.027780597015284503,0.08679860817536378
430,0.7765470383215143,0.8497339404281634,0.8148279551066129,0.0,0.03490598532155054,0.957254244521512,0.0029387061747263117,0.030755003397110275,0.07318690210664913
440,0.7871706208522509,0.8438836729850311,0.8041153132717785,0.0,0.03976835971325257,0.9516598759606913,0.0038424854417774216,0.03408412157319143,0.05671305213278022
450,0.798412003020797,0.8366787101624898,0.7915162351764345,0.0,0.0451624749860553,0.945186548489047,0.005016710566480009,0.037743539271030094,0.03826670714169289
460,0.8044158527038571,0.8276893343220604,0.7766799916174684,0.0,0.051009342704592016,0.9375710008181231,0.0065268052189852025,0.041842490458954364,0.023273481618203307
470,0.8173444907284367,0.8168724153223831,0.759481752952671,0.0,0.05739066236971217,0.9286739038459465,0.008478459906155218,0.04633093477146161,-0.0004720754060536514
480,0.8221608594284111,0.8047185911458947,0.7404109420854039,0.0,0.06430764906049086,0.9182589482195502,0.01099834218727552,0.05132424666682969,-0.017442268282516382
490,0.8296413857303121,0.7903274435538679,0.7186063548879092,0.0,0.07172108866595857,0.9060026899633924,0.014246393482061304,0.05677364296407086,-0.03931394217644424
500,0.8309854717426771,0.781773066661984,0.7062512314112929,0.0,0.07552183525069116,0.9002136470407273,0.016053992435492742,0.05855495090252324,-0.04921240508069313
510,0.8368837089471776,0.7738019596535503,0.6950343093584455,0.0,0.07876765029510475,0.89535748026887,0.01769160918114337,0.05964893116530644,-0.06308174929362731
520,0.8394836199855793,0.7621129649800287,0.6772899262248655,0.0,0.08482303875516317,0.884705418069051,0.02122135095613603,0.06340258406383531,-0.07737065500555063
530,0.8450517967522574,0.7462258979628646,0.6537124378477882,0.0,0.09251346011507645,0.8686347920442883,0.026686278777700665,0.06936906325943475,-0.09882589878939274
540,0.8440474072709211,0.74294592202319,0.6491373759752612,0.0,0.09380854604792878,0.8673885962242507,0.027456920953898654,0.0687312270229113,-0.1011014852477311
550,0.8458394978465507,0.7302817005882489,0.6303796491553554,0.0,0.09990205143289349,0.8539368740087829,0.03258791911198661,0.07313905029976456,-0.11555779725830173
560,0.8428612269902056,0.7260987595774696,0.6244438691248346,0.0,0.10165489045263502,0.8511548067937654,0.03397539880595296,0.07307319161657742,-0.11676246741273599
570,0.8429644933552799,0.7231582810035093,0.6200393021914105,0.0,0.10311897881209885,0.849375011538275,0.03506279029922211,0.07264564869726839,-0.11980621235177058
580,0.8417034439328023,0.7122221425937244,0.6041753751533826,0.0,0.10804676744034178,0.8374892312547513,0.040075631241169446,0.07597231616510615,-0.12948130133907787
590,0.8382768851077989,0.7056411102642159,0.5944020820931009,0.0,0.1112390281711151,0.8305964599098534,0.04339762846596504,0.07725714126981909,-0.1326357748435829
600,0.8414134751353879,0.7027624072332701,0.5892961555030228,0.0,0.11346625173024731,0.8272727704106699,0.045493142392415684,0.07731292037431405,-0.13865106790211779
610,0.8452575957177232,0.6917955433477719,0.5732901109896248,0.0,0.11850543235814713,0.8139444732660557,0.05189833474045592,0.08066322191177211,-0.15346205236995125
620,0.8446295944349392,0.6865066643620155,0.5649704563591423,0.0,0.12153620800287307,0.8072804389010995,0.055696355577979945,0.08167625006000476,-0.15812293007292377
630,0.8406763298040886,0.6817271270700954,0.5570943344375839,0.0,0.12463279263251151,0.8004374695778914,0.05978853039805493,0.08282657253184947,-0.15894920273399316
640,0.8349068869237191,0.6744869422224594,0.5462980561469095,0.0,0.12818888607554993,0.790861416596483,0.06525339524970651,0.08464581252783404,-0.16041994470125964
650,0.8300300613316128,0.6722836756394673,0.5419877448611988,0.0,0.13029593077826854,0.7874273064000599,0.06798394994570363,0.08451074441482904,-0.1577463856921455
660,0.8238056471832993,0.6675027385045731,0.5342380029132794,0.0,0.13326473559129365,0.7801819432032207,0.07273494106475935,0.08558361043066774,-0.1563029086787262
670,0.8216659261146222,0.660725750623108,0.5244370458163892,0.0,0.13628870480671887,0.7702429044842799,0.07869323691089641,0.0878285424659955,-0.16094017549151418
680,0.8165753074873786,0.6548178891703215,0.5159295752293513,0.0,0.1388883139409701,0.7615530329651717,0.08416642113158476,0.08959896969809387,-0.16175741831705714
690,0.8112741607614068,0.6486378707554745,0.507332782911666,0.0,0.14130508784380863,0.7527876839012893,0.08978094592864835,0.091257753315877,-0.16263629000593227
700,0.7998804066912127,0.6433647273906865,0.49975960923253737,0.0,0.14360511815814916,0.7447106514396279,0.09529655585273276,0.0927394967565807,-0.15651567930052623
710,0.8020221495561292,0.6398780570744642,0.49451196412282367,0.0,0.14536609295164052,0.7389507707121268,0.0995291989889919,0.09368696393654385,-0.16214409248166495
720,0.8031827153501128,0.6346475634463747,0.4873891343193982,0.0,0.14725842912697654,0.7310193315233531,0.10499969320096816,0.09526500335265713,-0.16853515190373802
730,0.8050043182491645,0.6279319823261509,0.4790228045893648,0.0,0.1489091777367861,0.7221684452575735,0.11084968910331501,0.09683116857053396,-0.17707233592301364
740,0.810378154673018,0.6166755523250069,0.46580245219466576,0.0,0.15087310013034114,0.7078008239118402,0.12002937731488943,0.09967371036010363,-0.19370260234801107
750,0.808672391735094,0.6031161130555607,0.4504720915277887,0.0,0.15264402152777198,0.690744455814016,0.13102796942730796,0.10300835751713121,-0.2055562786795333
760,0.7983594236545091,0.5354035701358313,0.3823847256724523,0.0,0.15301884446337904,0.6090930698736778,0.1824941837629332,0.12052876610123543,-0.2629558535186778
770,0.7593600564795306,0.4089760062015511,0.2731135972783232,0.0,0.13586240892322793,0.46096426665431417,0.2820447967489369,0.14906543704951195,-0.35038405027797953
780,0.6097343116667397,0.2581372624981297,0.1616935139676398,0.0,0.09644374853048988,0.28873974778986466,0.40509423926926447,0.1776258982326059,-0.35159704916861007
790,0.34053379993908117,0.136767355833949,0.08200576303614485,0.0,0.05476159279780414,0.1521675365209434,0.507438111908668,0.19769144225738294,-0.20376644410513217
800,0.1334847239034098,0.06284430210551271,0.036775268928872874,0.0,0.026069033176639837,0.06970911266457697,0.5712954419234975,0.2085550759709898,-0.07064042179789708
810,0.048146677378480766,0.027176923747662576,0.01572040357563721,0.0,0.011456520172025367,0.03008293746663782,0.6036118523882242,0.21319551386411315,-0.02096975363081819
820,0.02012756710093137,0.010644322074247412,0.006122411379442825,0.0,0.004521910694804588,0.01177320244948723,0.6190788004315252,0.21459697749422743,-0.009483245026683958
830,0.01476493622309136,0.00411470719369403,0.002360436513875213,0.0,0.0017542706798188172,0.004547768328655668,0.6262293184773997,0.21463127432890625,-0.01065022902939733

Depth_in_CIGS,Collection_Efficiency
0.0,1.0
0.4007815631262525,1.0
0.801563126252505,1.0
1.2023446893787575,1.0
1.60312625250501,1.0
2.0039078156312624,1.0
2.404689378757515,1.0
2.8054709418837676,1.0
3.20625250501002,1.0
3.6070340681362727,1.0
4.007815631262525,1.0
4.408597194388777,1.0
4.80937875751503,1.0
5.2101603206412825,1.0
5.610941883767535,1.0
6.011723446893788,1.0
6.41250501002004,1.0
6.813286573146293,1.0
7.214068136272545,1.0
7.614849699398798,1.0
8.01563126252505,1.0
8.416412825651303,1.0
8.817194388777555,1.0
9.217975951903808,1.0
9.61875751503006,1.0
10.019539078156313,1.0
10.420320641282565,1.0
10.821102204408819,1.0
11.22188376753507,1.0
11.622665330661324,1.0
12.023446893787575,1.0
12.424228456913829,1.0
12.82501002004008,1.0
13.225791583166332,1.0
13.626573146292586,1.0
14.027354709418837,1.0
14.42813627254509,1.0
14.828917835671342,1.0
15.229699398797596,1.0
15.630480961923848,1.0
16.0312625250501,1.0
16.432044088176355,1.0
16.832825651302606,1.0
17.233607214428858,1.0
17.63438877755511,1.0
18.035170340681365,1.0
18.435951903807617,1.0
18.836733466933868,1.0
19.23751503006012,1.0
19.63829659318637,1.0
20.039078156312627,1.0
20.43985971943888,1.0
20.84064128256513,1.0
21.241422845691382,1.0
21.642204408817637,1.0
22.04298597194389,1.0
22.44376753507014,1.0
22.844549098196392,1.0
23.245330661322647,1.0
23.6461122244489,1.0
24.04689378757515,1.0
24.447675350701402,1.0
24.848456913827658,1.0
25.24923847695391,1.0
25.65002004008016,1.0
26.050801603206413,1.0
26.451583166332664,1.0
26.85236472945892,1.0
27.25314629258517,1.0
27.653927855711423,1.0
28.054709418837675,1.0
28.45549098196393,1.0
28.85627254509018,1.0
29.257054108216433,1.0
29.657835671342685,1.0
30.05861723446894,1.0
30.459398797595192,1.0
30.860180360721444,1.0
31.260961923847695,1.0
31.66174348697395,1.0
32.0625250501002,1.0
32.46330661322645,1.0
32.86408817635271,1.0
33.26486973947896,1.0
33.66565130260521,1.0
34.066432865731464,1.0
34.467214428857716,1.0
34.86799599198397,1.0
35.26877755511022,1.0
35.66955911823647,1.0
36.07034068136273,1.0
36.47112224448898,1.0
36.87190380761523,1.0
37.272685370741485,1.0
37.673466933867736,1.0
38.07424849699399,1.0
38.47503006012024,1.0
38.87581162324649,1.0
39.27659318637274,1.0
39.677374749499,1.0
40.078156312625254,1.0
40.478937875751505,1.0
40.87971943887776,1.0
41.28050100200401,1.0
41.68128256513026,1.0
42.08206412825651,1.0
42.482845691382764,1.0
42.88362725450902,1.0
43.284408817635274,1.0
43.685190380761526,1.0
44.08597194388778,1.0
44.48675350701403,1.0
44.88753507014028,1.0
45.28831663326653,1.0
45.689098196392784,1.0
46.089879759519036,1.0
46.490661322645295,1.0
46.891442885771546,1.0
47.2922244488978,1.0
47.69300601202405,1.0
48.0937875751503,1.0
48.49456913827655,1.0
48.895350701402805,1.0
49.29613226452906,1.0
49.696913827655315,1.0
50.09769539078157,1.0
50.49847695390782,1.0
50.89925851703407,1.0
51.30004008016032,1.0
51.700821643286574,1.0
52.101603206412825,1.0
52.50238476953908,1.0
52.90316633266533,1.0
53.30394789579159,1.0
53.70472945891784,1.0
54.10551102204409,1.0
54.50629258517034,1.0
54.907074148296594,1.0
55.307855711422846,1.0
55.7086372745491,1.0
56.10941883767535,1.0
56.51020040080161,1.0
56.91098196392786,1.0
57.31176352705411,1.0
57.71254509018036,1.0
58.113326653306615,1.0
58.51410821643287,1.0
58.91488977955912,1.0
59.31567134268537,1.0
59.71645290581162,1.0
60.11723446893788,1.0
60.51801603206413,1.0
60.918797595190384,1.0
61.319579158316635,1.0
61.72036072144289,1.0
62.12114228456914,1.0
62.52192384769539,1.0
62.92270541082164,1.0
63.3234869739479,1.0
63.72426853707415,1.0
64.1250501002004,1.0
64.52583166332666,1.0
64.9266132264529,1.0
65.32739478957916,1.0
65.72817635270542,1.0
66.12895791583166,1.0
66.52973947895792,1.0
66.93052104208417,1.0
67.33130260521042,1.0
67.73208416833667,1.0
68.13286573146293,1.0
68.53364729458919,1.0
68.93442885771543,1.0
69.33521042084169,1.0
69.73599198396793,1.0
70.1367735470942,1.0
70.53755511022044,1.0
70.9383366733467,1.0
71.33911823647294,1.0
71.7398997995992,1.0
72.14068136272546,1.0
72.5414629258517,1.0
72.94224448897796,1.0
73.34302605210421,1.0
73.74380761523047,1.0
74.14458917835671,1.0
74.54537074148297,1.0
74.94615230460921,1.0
75.34693386773547,1.0
75.74771543086173,1.0
76.14849699398798,1.0
76.54927855711423,1.0
76.95006012024048,1.0
77.35084168336674,1.0
77.75162324649298,1.0
78.15240480961924,1.0
78.55318637274549,1.0
78.95396793587174,1.0
79.354749498998,1.0
79.75553106212425,1.0
80.15631262525051,1.0
80.55709418837675,1.0
80.95787575150301,1.0
81.35865731462926,1.0
81.75943887775551,1.0
82.16022044088177,1.0
82.56100200400802,1.0
82.96178356713428,1.0
83.36256513026052,1.0
83.76334669338678,1.0
84.16412825651302,1.0
84.56490981963928,1.0
84.96569138276553,1.0
85.36647294589179,1.0
85.76725450901804,1.0
86.16803607214429,1.0
86.56881763527055,1.0
86.96959919839679,1.0
87.37038076152305,1.0
87.7711623246493,1.0
88.17194388777556,1.0
88.5727254509018,1.0
88.97350701402806,1.0
89.37428857715432,1.0
89.77507014028056,1.0
90.17585170340682,1.0
90.57663326653307,1.0
90.97741482965932,1.0
91.37819639278557,1.0
91.77897795591183,1.0
92.17975951903807,1.0
92.58054108216433,1.0
92.98132264529059,1.0
93.38210420841683,1.0
93.78288577154309,1.0
94.18366733466934,1.0
94.5844488977956,1.0
94.98523046092184,1.0
95.3860120240481,1.0
95.78679358717436,1.0
96.1875751503006,1.0
96.58835671342686,1.0
96.9891382765531,1.0
97.38991983967937,1.0
97.79070140280561,1.0
98.19148296593187,1.0
98.59226452905811,1.0
98.99304609218437,1.0
99.39382765531063,1.0
99.79460921843688,1.0
100.19539078156313,1.0
100.59617234468938,1.0
100.99695390781564,1.0
101.39773547094188,1.0
101.79851703406814,1.0
102.19929859719439,1.0
102.60008016032064,1.0
103.0008617234469,1.0
103.40164328657315,1.0
103.8024248496994,1.0
104.20320641282565,1.0
104.60398797595191,1.0
105.00476953907815,1.0
105.40555110220441,1.0
105.80633266533066,1.0
106.20711422845692,1.0
106.60789579158318,1.0
107.00867735470942,1.0
107.40945891783568,1.0
107.81024048096192,1.0
108.21102204408818,1.0
108.61180360721443,1.0
109.01258517034069,1.0
109.41336673346693,1.0
109.81414829659319,1.0
110.21492985971945,1.0
110.61571142284569,1.0
111.01649298597195,1.0
111.4172745490982,1.0
111.81805611222445,1.0
112.2188376753507,1.0
112.61961923847696,1.0
113.02040080160322,1.0
113.42118236472946,1.0
113.82196392785572,1.0
114.22274549098196,1.0
114.62352705410822,1.0
115.02430861723447,1.0
115.42509018036073,1.0
115.82587174348697,1.0
116.22665330661323,1.0
116.62743486973949,1.0
117.02821643286573,1.0
117.42899799599199,1.0
117.82977955911824,1.0
118.2305611222445,1.0
118.63134268537074,1.0
119.032124248497,1.0
119.43290581162324,1.0
119.8336873747495,1.0
120.23446893787576,1.0
120.635250501002,1.0
121.03603206412826,1.0
121.43681362725451,1.0
121.83759519038077,1.0
122.23837675350701,1.0
122.63915831663327,1.0
123.03993987975952,1.0
123.44072144288577,1.0
123.84150300601203,1.0
124.24228456913828,1.0
124.64306613226454,1.0
125.04384769539078,1.0
125.44462925851704,1.0
125.84541082164328,1.0
126.24619238476954,1.0
126.6469739478958,1.0
127.04775551102205,1.0
127.4485370741483,1.0
127.84931863727455,1.0
128.2501002004008,1.0
128.65088176352705,1.0
129.0516633266533,1.0
129.45244488977957,1.0
129.8532264529058,1.0
130.25400801603206,1.0
130.65478957915832,1.0
131.05557114228458,1.0
131.45635270541084,1.0
131.85713426853707,1.0
132.25791583166333,1.0
132.65869739478958,1.0
133.05947895791584,1.0
133.4602605210421,1.0
133.86104208416833,1.0
134.2618236472946,1.0
134.66260521042085,1.0
135.0633867735471,1.0
135.46416833667334,1.0
135.8649498997996,1.0
136.26573146292586,1.0
136.66651302605212,1.0
137.06729458917837,1.0
137.4680761523046,1.0
137.86885771543086,1.0
138.26963927855712,1.0
138.67042084168338,1.0
139.0712024048096,1.0
139.47198396793587,1.0
139.87276553106213,1.0
140.2735470941884,1.0
140.67432865731465,1.0
141.07511022044088,1.0
141.47589178356714,1.0
141.8766733466934,1.0
142.27745490981965,1.0
142.67823647294588,1.0
143.07901803607214,1.0
143.4797995991984,1.0
143.88058116232466,1.0
144.28136272545092,1.0
144.68214428857715,1.0
145.0829258517034,1.0
145.48370741482967,1.0
145.88448897795593,1.0
146.28527054108216,1.0
146.68605210420841,1.0
147.08683366733467,1.0
147.48761523046093,1.0
147.8883967935872,1.0
148.28917835671342,1.0
148.68995991983968,1.0
149.09074148296594,1.0
149.4915230460922,1.0
149.89230460921843,1.0
150.2930861723447,1.0
150.69386773547095,1.0
151.0946492985972,1.0
151.49543086172346,1.0
151.8962124248497,1.0
152.29699398797595,1.0
152.6977755511022,1.0
153.09855711422847,1.0
153.4993386773547,1.0
153.90012024048096,1.0
154.30090180360722,1.0
154.70168336673348,1.0
155.10246492985974,1.0
155.50324649298597,1.0
155.90402805611222,1.0
156.30480961923848,1.0
156.70559118236474,1.0
157.10637274549097,1.0
157.50715430861723,1.0
157.9079358717435,1.0
158.30871743486975,1.0
158.709498997996,1.0
159.11028056112224,1.0
159.5110621242485,1.0
159.91184368737476,1.0
160.31262525050101,1.0
160.71340681362724,1.0
161.1141883767535,1.0
161.51496993987976,1.0
161.91575150300602,1.0
162.31653306613228,1.0
162.7173146292585,1.0
163.11809619238477,1.0
163.51887775551103,1.0
163.9196593186373,1.0
164.32044088176355,1.0
164.72122244488978,1.0
165.12200400801603,1.0
165.5227855711423,1.0
165.92356713426855,1.0
166.32434869739478,1.0
166.72513026052104,1.0
167.1259118236473,1.0
167.52669338677356,1.0
167.92747494989982,1.0
168.32825651302605,1.0
168.7290380761523,1.0
169.12981963927857,1.0
169.53060120240482,1.0
169.93138276553105,1.0
170.3321643286573,1.0
170.73294589178357,1.0
171.13372745490983,1.0
171.5345090180361,1.0
171.93529058116232,1.0
172.33607214428858,1.0
172.73685370741484,1.0
173.1376352705411,1.0
173.53841683366733,1.0
173.93919839679359,1.0
174.33997995991984,1.0
174.7407615230461,1.0
175.14154308617236,1.0
175.5423246492986,1.0
175.94310621242485,1.0
176.3438877755511,1.0
176.74466933867737,1.0
177.1454509018036,1.0
177.54623246492986,1.0
177.94701402805612,1.0
178.34779559118238,1.0
178.74857715430863,1.0
179.14935871743486,1.0
179.55014028056112,1.0
179.95092184368738,1.0
180.35170340681364,1.0
180.75248496993987,1.0
181.15326653306613,1.0
181.5540480961924,1.0
181.95482965931865,1.0
182.3556112224449,1.0
182.75639278557114,1.0
183.1571743486974,1.0
183.55795591182365,1.0
183.9587374749499,1.0
