Illumination Mode,rear

Parameter,Lower Bound,Value,Upper Bound
EgShift,0.95,1.0,1.05
dDEAD,0.0,0.0,500.0
CIGS,300.0,299.99,2000.0
dSCR,0.0,299.99,2000.0
Ln,0.01,0.01,2000.0
Recomb,0.8,1.0,1.0

Wavelength,Experimental_IQE,IQE_fit,IQE_fit_SCR,IQE_fit_Ln,IQE_fit_metal_reflection,Absorbed_CIGS,ReTransmitted,Absorbed_Metal,Residual
310,0.19322473493722422,0.14780962874712109,0.14767224474668905,0.0,0.00013738400043204288,0.9979110908952906,3.0653949969323e-07,0.000191804713379204,-0.04541510619010314
320,0.40392495044109067,0.33344628934289794,0.3330671106366961,0.0,0.0003791787062018793,0.9976882164480788,1.0231087344635834e-06,0.000518487548367528,-0.07047866109819273
330,0.5462828674213261,0.5075715768405497,0.5068596976855361,0.0,0.0007118791550135536,0.9974594738172056,2.3228744930405288e-06,0.0009396902849572962,-0.03871129058077649
340,0.6055037434397584,0.6312277117066577,0.6301305366054848,0.0,0.0010971751011728782,0.99716641982845,4.32974598589925e-06,0.001385158547356451,0.025723968266899266
350,0.6590966906268688,0.711761732043434,0.7102258653570541,0.0,0.0015358666863798916,0.9967845127092333,7.3322845681423354e-06,0.001847445671997875,0.05266504141656514
360,0.6771099817129859,0.7657397458482131,0.7636868072480764,0.0,0.002052938600136761,0.9963106298676959,1.1856692036951807e-05,0.0023458574597499016,0.08862976413522727
370,0.6912100694111285,0.801831293871721,0.7991633561187065,0.0,0.0026679377530145227,0.9957269374555635,1.8647589662649718e-05,0.002899178538616247,0.11062122446059253
380,0.7032046198837955,0.8239115224646163,0.8205306488362025,0.0,0.0033808736284138153,0.9949922739760153,2.8600715294493125e-05,0.0035318568200891918,0.12070690258082084
390,0.723877055548049,0.8487798171610792,0.8444858074238444,0.0,0.004294009737234777,0.994154430536192,4.3985445731427794e-05,0.004312447393189407,0.12490276161303016
400,0.7392339706030462,0.8649938870792307,0.8595892675044375,0.0,0.005404619574793256,0.9931492372266575,6.705749457058074e-05,0.005193625426198637,0.12575991647618456
410,0.7535359164128191,0.8722185437841706,0.8654561045188137,0.0,0.006762439265356873,0.9919504977192316,0.00010167079700994787,0.006147705418819461,0.11868262737135149
420,0.7656879880752048,0.8750795123981655,0.8667003267612323,0.0,0.008379185636933226,0.9904765965429382,0.00015274362373273552,0.007267093978101741,0.10939152432296073
430,0.7765470383215143,0.8746298227549573,0.8643128378387179,0.0,0.010316984916239315,0.9886798851930395,0.0002281664926299459,0.008569660752412857,0.09808278443344298
440,0.7871706208522509,0.8713551652082991,0.8587494267053812,0.0,0.012605738502917881,0.9864540210443522,0.00033851444582780246,0.010116600345872985,0.08418454435604827
450,0.798412003020797,0.8670040361656792,0.8516403005123258,0.0,0.015363735653353507,0.9837541973544427,0.0005014925381399722,0.011933431296180791,0.06859203314488227
460,0.8044158527038571,0.8612262818672921,0.8425891207289249,0.0,0.018637161138367223,0.9804325157813835,0.0007403093894298936,0.01409203874327793,0.05681042916343504
470,0.8173444907284367,0.8539692498896845,0.8314297265222896,0.0,0.022539523367394836,0.9763620271572693,0.0010912080085554395,0.01662135210176013,0.036624759161247744
480,0.8221608594284111,0.8458217466692547,0.8186500923768798,0.0,0.027171654292374867,0.9713599019334844,0.0016061390769649111,0.019613294253780365,0.023660887240843587
490,0.8296413857303121,0.8358761287624878,0.8032422850015617,0.0,0.03263384376092614,0.9651753599926352,0.002360677333207747,0.02311067390430447,0.006234743032175749
500,0.8309854717426771,0.8290520730212066,0.7935252586155922,0.0,0.0355268144056145,0.9621287856632688,0.00281415130309732,0.024515785675695945,-0.0019333987214704695
510,0.8368837089471776,0.8223535393416552,0.7842897954481929,0.0,0.0380637438934624,0.9595190765177795,0.003244545880124721,0.02554441477822,-0.014530169605522336
520,0.8394836199855793,0.8141287821391382,0.7709386788574633,0.0,0.04319010328167492,0.9536720710067891,0.004246424637255321,0.02836169322360654,-0.025354837846441103
530,0.8450517967522574,0.8034858866091844,0.7530617063104702,0.0,0.05042418029871425,0.944498119676101,0.005974041456668228,0.03282131193414736,-0.04156591014307298
540,0.8440474072709211,0.8002141557327749,0.7487301502325687,0.0,0.051484005500206174,0.9437492310470235,0.006216332948661012,0.032703581318564046,-0.04383325153814621
550,0.8458394978465507,0.7917217890816555,0.734030787088228,0.0,0.05769100199342744,0.9357091535135881,0.008014931185224812,0.03627194973311981,-0.05411770876489519
560,0.8428612269902056,0.7880652443227971,0.7286949075741043,0.0,0.059370336748692826,0.9339994255576585,0.008510251158051665,0.03657185451915115,-0.05479598266740848
570,0.8429644933552799,0.7853778167213433,0.7246702547173499,0.0,0.06070756200399339,0.9328934821686018,0.008896361426157835,0.036592541852498765,-0.05758667663393657
580,0.8417034439328023,0.777912215419731,0.7117107076233888,0.0,0.06620150779634217,0.9254752111645139,0.010842055316140171,0.03951581926412874,-0.06379122851307129
590,0.8382768851077989,0.7731912141849208,0.7034524003822407,0.0,0.06973881380268007,0.9210711481503241,0.012178448104350967,0.040926217710728206,-0.06508567092287809
600,0.8414134751353879,0.7711906023851915,0.6991736952725262,0.0,0.07201690711266544,0.9189166140170801,0.013019026334402835,0.0413588412804056,-0.07022287275019634
610,0.8452575957177232,0.7640375100933036,0.6858047739736328,0.0,0.07823273611967071,0.9101595479026139,0.015805266997462035,0.04451432290923444,-0.08122008562441962
620,0.8446295944349392,0.7605922098666925,0.6787430206385353,0.0,0.08184918922815718,0.9056871535436513,0.017501888014518296,0.04578517211878922,-0.08403738456824672
630,0.8406763298040886,0.7578015675194395,0.6721805003756074,0.0,0.08562106714383212,0.9010354374298326,0.01938207023502125,0.04715859224553921,-0.08287476228464907
640,0.8349068869237191,0.7532147163870666,0.6628772533905455,0.0,0.09033746299652112,0.8944233314824794,0.02201056665685498,0.04916086695607837,-0.08169217053665245
650,0.8300300613316128,0.7519861249138657,0.6591947937919878,0.0,0.09279133112187796,0.8920300330194408,0.02330831583161864,0.049483929254515634,-0.0780439364177471
660,0.8238056471832993,0.7492880538965363,0.6525647647307616,0.0,0.09672328916577465,0.8869242353423519,0.025680119275805467,0.050853116827658314,-0.074517593286763
670,0.8216659261146222,0.7453072057728239,0.6440465849220739,0.0,0.10126062085075002,0.8798021837636958,0.02880388138581546,0.053136442841360494,-0.07635872034179825
680,0.8165753074873786,0.7417886917168247,0.6365322221222052,0.0,0.10525646959461958,0.8734740253751383,0.03175741247903035,0.05503717580414491,-0.0747866157705539
690,0.8112741607614068,0.7379160832373948,0.6287606835789054,0.0,0.10915539965848942,0.8669937023345616,0.03487981111541946,0.0568806756471857,-0.07335807752401202
700,0.7998804066912127,0.7348181065967037,0.6219473548952907,0.0,0.11287075170141288,0.8609424036131309,0.03801152195909614,0.058571151444200144,-0.06506230009450908
710,0.8020221495561292,0.7329210879199071,0.6172504815463434,0.0,0.11567060637356368,0.8565837788912453,0.040448370402764645,0.059724761677328264,-0.0691010616362221
720,0.8031827153501128,0.7297488087052306,0.6107070871070386,0.0,0.11904172159819203,0.8505043151730409,0.043703062132174855,0.06146038916259454,-0.07343390664488214
730,0.8050043182491645,0.7250567793771231,0.6026739477475441,0.0,0.122382831629579,0.8436186945772379,0.04730206330812666,0.06325399731475023,-0.07994753887204142
740,0.810378154673018,0.7168539813197514,0.5897145326504365,0.0,0.12713944866931493,0.832220263084227,0.053179524801573466,0.06634513387867494,-0.09352417335326657
750,0.808672391735094,0.7066265979515718,0.5743572018577532,0.0,0.1322693960938186,0.8183537630673571,0.060519424729029395,0.07000641731939888,-0.10204579378352219
760,0.7983594236545091,0.6502760450032073,0.5020947805699604,0.0,0.148181264433247,0.747034913015308,0.09926026787452802,0.08889020712226461,-0.14808337865130172
770,0.7593600564795306,0.5272791639458045,0.37431040708135216,0.0,0.15296875686445233,0.5985306399889185,0.1903477669633299,0.12245930909086551,-0.2320808925337261
780,0.6097343116667397,0.3540289325600044,0.23048008730551467,0.0,0.12354884525448973,0.3976501224811808,0.3271927437834578,0.1596357236565377,-0.25570537910673535
790,0.34053379993908117,0.19607245822692662,0.11996455397066558,0.0,0.07610790425626104,0.218601067665859,0.45800827672491456,0.18781617504815884,-0.14446134171215455
800,0.1334847239034098,0.09237856901096313,0.05455750370635906,0.0,0.037821065304604065,0.10256277536561888,0.5463628444030665,0.20395340658597036,-0.041106154892446664
810,0.048146677378480766,0.040415573465122555,0.023470842233698053,0.0,0.016944731231424502,0.044754303650951476,0.5923681692260621,0.21120054730881535,-0.0077311039133582116
820,0.02012756710093137,0.015913173886815977,0.00916710057997299,0.0,0.006746073306842987,0.01760344905802194,0.6145894557790377,0.21381747033414641,-0.004214393214115392
830,0.01476493622309136,0.006164175299017685,0.0035382397646497245,0.0,0.00262593553436796,0.006813323928620105,0.624479860998018,0.2143312637029643,-0.008600760924073676

Depth_in_CIGS,Collection_Efficiency
0.0,1.0
0.601182364729459,1.0
1.202364729458918,1.0
1.8035470941883769,1.0
2.404729458917836,1.0
3.0059118236472946,1.0
3.6070941883767538,1.0
4.208276553106213,1.0
4.809458917835672,1.0
5.41064128256513,1.0
6.011823647294589,1.0
6.613006012024049,1.0
7.2141883767535075,1.0
7.815370741482966,1.0
8.416553106212426,1.0
9.017735470941885,1.0
9.618917835671343,1.0
10.220100200400802,1.0
10.82128256513026,1.0
11.42246492985972,1.0
12.023647294589178,1.0
12.624829659318639,1.0
13.226012024048098,1.0
13.827194388777556,1.0
14.428376753507015,1.0
15.029559118236474,1.0
15.630741482965933,1.0
16.23192384769539,1.0
16.833106212424852,1.0
17.43428857715431,1.0
18.03547094188377,1.0
18.636653306613226,1.0
19.237835671342687,1.0
19.839018036072147,1.0
20.440200400801604,1.0
21.041382765531065,1.0
21.64256513026052,1.0
22.243747494989982,1.0
22.84492985971944,1.0
23.4461122244489,1.0
24.047294589178357,1.0
24.648476953907817,1.0
25.249659318637278,1.0
25.850841683366735,1.0
26.452024048096195,1.0
27.053206412825652,1.0
27.654388777555113,1.0
28.25557114228457,1.0
28.85675350701403,1.0
29.45793587174349,1.0
30.059118236472948,1.0
30.660300601202408,1.0
31.261482965931865,1.0
31.862665330661326,1.0
32.46384769539078,1.0
33.06503006012024,1.0
33.666212424849704,1.0
34.267394789579164,1.0
34.86857715430862,1.0
35.46975951903808,1.0
36.07094188376754,1.0
36.672124248497,1.0
37.27330661322645,1.0
37.87448897795591,1.0
38.475671342685374,1.0
39.076853707414834,1.0
39.678036072144295,1.0
40.27921843687375,1.0
40.88040080160321,1.0
41.48158316633267,1.0
42.08276553106213,1.0
42.68394789579158,1.0
43.28513026052104,1.0
43.886312625250504,1.0
44.487494989979965,1.0
45.088677354709425,1.0
45.68985971943888,1.0
46.29104208416834,1.0
46.8922244488978,1.0
47.49340681362726,1.0
48.09458917835671,1.0
48.695771543086174,1.0
49.296953907815634,1.0
49.898136272545095,1.0
50.499318637274555,1.0
51.10050100200401,1.0
51.70168336673347,1.0
52.30286573146293,1.0
52.90404809619239,1.0
53.50523046092185,1.0
54.106412825651304,1.0
54.707595190380765,1.0
55.308777555110225,1.0
55.909959919839686,1.0
56.51114228456914,1.0
57.1123246492986,1.0
57.71350701402806,1.0
58.31468937875752,1.0
58.91587174348698,1.0
59.517054108216435,1.0
60.118236472945895,1.0
60.719418837675356,1.0
61.320601202404816,1.0
61.92178356713427,1.0
62.52296593186373,1.0
63.12414829659319,1.0
63.72533066132265,1.0
64.32651302605211,1.0
64.92769539078157,1.0
65.52887775551103,1.0
66.13006012024049,1.0
66.73124248496994,1.0
67.33242484969941,1.0
67.93360721442886,1.0
68.53478957915833,1.0
69.13597194388778,1.0
69.73715430861724,1.0
70.3383366733467,1.0
70.93951903807616,1.0
71.54070140280561,1.0
72.14188376753508,1.0
72.74306613226453,1.0
73.344248496994,1.0
73.94543086172345,1.0
74.5466132264529,1.0
75.14779559118237,1.0
75.74897795591183,1.0
76.3501603206413,1.0
76.95134268537075,1.0
77.5525250501002,1.0
78.15370741482967,1.0
78.75488977955912,1.0
79.35607214428859,1.0
79.95725450901804,1.0
80.5584368737475,1.0
81.15961923847696,1.0
81.76080160320642,1.0
82.36198396793588,1.0
82.96316633266534,1.0
83.56434869739479,1.0
84.16553106212426,1.0
84.76671342685371,1.0
85.36789579158317,1.0
85.96907815631263,1.0
86.57026052104209,1.0
87.17144288577155,1.0
87.77262525050101,1.0
88.37380761523046,1.0
88.97498997995993,1.0
89.57617234468938,1.0
90.17735470941885,1.0
90.7785370741483,1.0
91.37971943887776,1.0
91.98090180360722,1.0
92.58208416833668,1.0
93.18326653306615,1.0
93.7844488977956,1.0
94.38563126252505,1.0
94.98681362725452,1.0
95.58799599198397,1.0
96.18917835671343,1.0
96.7903607214429,1.0
97.39154308617235,1.0
97.99272545090182,1.0
98.59390781563127,1.0
99.19509018036072,1.0
99.79627254509019,1.0
100.39745490981964,1.0
100.99863727454911,1.0
101.59981963927856,1.0
102.20100200400802,1.0
102.80218436873749,1.0
103.40336673346694,1.0
104.0045490981964,1.0
104.60573146292586,1.0
105.20691382765531,1.0
105.80809619238478,1.0
106.40927855711423,1.0
107.0104609218437,1.0
107.61164328657316,1.0
108.21282565130261,1.0
108.81400801603208,1.0
109.41519038076153,1.0
110.01637274549098,1.0
110.61755511022045,1.0
111.2187374749499,1.0
111.81991983967937,1.0
112.42110220440883,1.0
113.02228456913828,1.0
113.62346693386775,1.0
114.2246492985972,1.0
114.82583166332667,1.0
115.42701402805612,1.0
116.02819639278557,1.0
116.62937875751504,1.0
117.2305611222445,1.0
117.83174348697396,1.0
118.43292585170342,1.0
119.03410821643287,1.0
119.63529058116234,1.0
120.23647294589179,1.0
120.83765531062126,1.0
121.43883767535071,1.0
122.04002004008017,1.0
122.64120240480963,1.0
123.24238476953909,1.0
123.84356713426854,1.0
124.44474949899801,1.0
125.04593186372746,1.0
125.64711422845693,1.0
126.24829659318638,1.0
126.84947895791584,1.0
127.4506613226453,1.0
128.05184368737477,1.0
128.65302605210422,1.0
129.25420841683368,1.0
129.85539078156313,1.0
130.45657314629258,1.0
131.05775551102207,1.0
131.65893787575152,1.0
132.26012024048097,1.0
132.86130260521043,1.0
133.46248496993988,1.0
134.06366733466936,1.0
134.66484969939881,1.0
135.26603206412827,1.0
135.86721442885772,1.0
136.46839679358717,1.0
137.06957915831666,1.0
137.6707615230461,1.0
138.27194388777556,1.0
138.87312625250502,1.0
139.47430861723447,1.0
140.07549098196395,1.0
140.6766733466934,1.0
141.27785571142286,1.0
141.8790380761523,1.0
142.48022044088177,1.0
143.08140280561122,1.0
143.6825851703407,1.0
144.28376753507015,1.0
144.8849498997996,1.0
145.48613226452906,1.0
146.08731462925851,1.0
146.688496993988,1.0
147.28967935871745,1.0
147.8908617234469,1.0
148.49204408817636,1.0
149.0932264529058,1.0
149.6944088176353,1.0
150.29559118236475,1.0
150.8967735470942,1.0
151.49795591182365,1.0
152.0991382765531,1.0
152.7003206412826,1.0
153.30150300601204,1.0
153.9026853707415,1.0
154.50386773547095,1.0
155.1050501002004,1.0
155.70623246492988,1.0
156.30741482965934,1.0
156.9085971943888,1.0
157.50977955911824,1.0
158.1109619238477,1.0
158.71214428857718,1.0
159.31332665330663,1.0
159.91450901803609,1.0
160.51569138276554,1.0
161.116873747495,1.0
161.71805611222447,1.0
162.31923847695393,1.0
162.92042084168338,1.0
163.52160320641283,1.0
164.1227855711423,1.0
164.72396793587177,1.0
165.32515030060122,1.0
165.92633266533068,1.0
166.52751503006013,1.0
167.12869739478958,1.0
167.72987975951904,1.0
168.33106212424852,1.0
168.93224448897797,1.0
169.53342685370743,1.0
170.13460921843688,1.0
170.73579158316633,1.0
171.3369739478958,1.0
171.93815631262527,1.0
172.53933867735472,1.0
173.14052104208417,1.0
173.74170340681363,1.0
174.3428857715431,1.0
174.94406813627256,1.0
175.54525050100202,1.0
176.14643286573147,1.0
176.74761523046092,1.0
177.3487975951904,1.0
177.94997995991986,1.0
178.5511623246493,1.0
179.15234468937876,1.0
179.75352705410822,1.0
180.3547094188377,1.0
180.95589178356715,1.0
181.5570741482966,1.0
182.15825651302606,1.0
182.7594388777555,1.0
183.360621242485,1.0
183.96180360721445,1.0
184.5629859719439,1.0
185.16416833667336,1.0
185.7653507014028,1.0
186.3665330661323,1.0
186.96771543086174,1.0
187.5688977955912,1.0
188.17008016032065,1.0
188.7712625250501,1.0
189.3724448897796,1.0
189.97362725450904,1.0
190.5748096192385,1.0
191.17599198396795,1.0
191.7771743486974,1.0
192.37835671342685,1.0
192.97953907815634,1.0
193.5807214428858,1.0
194.18190380761524,1.0
194.7830861723447,1.0
195.38426853707415,1.0
195.98545090180363,1.0
196.58663326653308,1.0
197.18781563126254,1.0
197.788997995992,1.0
198.39018036072144,1.0
198.99136272545093,1.0
199.59254509018038,1.0
200.19372745490983,1.0
200.7949098196393,1.0
201.39609218436874,1.0
201.99727454909822,1.0
202.59845691382768,1.0
203.19963927855713,1.0
203.80082164328658,1.0
204.40200400801604,1.0
205.00318637274552,1.0
205.60436873747497,1.0
206.20555110220442,1.0
206.80673346693388,1.0
207.40791583166333,1.0
208.0090981963928,1.0
208.61028056112227,1.0
209.21146292585172,1.0
209.81264529058117,1.0
210.41382765531063,1.0
211.0150100200401,1.0
211.61619238476956,1.0
212.21737474949902,1.0
212.81855711422847,1.0
213.41973947895792,1.0
214.0209218436874,1.0
214.62210420841686,1.0
215.2232865731463,1.0
215.82446893787576,1.0
216.42565130260522,1.0
217.0268336673347,1.0
217.62801603206415,1.0
218.2291983967936,1.0
218.83038076152306,1.0
219.4315631262525,1.0
220.03274549098197,1.0
220.63392785571145,1.0
221.2351102204409,1.0
221.83629258517036,1.0
222.4374749498998,1.0
223.03865731462926,1.0
223.63983967935874,1.0
224.2410220440882,1.0
224.84220440881765,1.0
225.4433867735471,1.0
226.04456913827656,1.0
226.64575150300604,1.0
227.2469338677355,1.0
227.84811623246495,1.0
228.4492985971944,1.0
229.05048096192385,1.0
229.65166332665333,1.0
230.2528456913828,1.0
230.85402805611224,1.0
231.4552104208417,1.0
232.05639278557115,1.0
232.65757515030063,1.0
233.25875751503008,1.0
233.85993987975954,1.0
234.461122244489,1.0
235.06230460921844,1.0
235.66348697394793,1.0
236.26466933867738,1.0
236.86585170340683,1.0
237.4670340681363,1.0
238.06821643286574,1.0
238.66939879759522,1.0
239.27058116232467,1.0
239.87176352705413,1.0
240.47294589178358,1.0
241.07412825651303,1.0
241.67531062124252,1.0
242.27649298597197,1.0
242.87767535070142,1.0
243.47885771543088,1.0
244.08004008016033,1.0
244.68122244488978,1.0
245.28240480961927,1.0
245.88358717434872,1.0
246.48476953907817,1.0
247.08595190380763,1.0
247.68713426853708,1.0
248.28831663326656,1.0
248.88949899799601,1.0
249.49068136272547,1.0
250.09186372745492,1.0
250.69304609218437,1.0
251.29422845691386,1.0
251.8954108216433,1.0
252.49659318637276,1.0
253.09777555110222,1.0
253.69895791583167,1.0
254.30014028056115,1.0
254.9013226452906,1.0
255.50250501002006,1.0
256.10368737474954,1.0
256.70486973947897,1.0
257.30605210420845,1.0
257.9072344689379,1.0
258.50841683366735,1.0
259.10959919839684,1.0
259.71078156312626,1.0
260.31196392785574,1.0
260.91314629258517,1.0
261.51432865731465,1.0
262.11551102204413,1.0
262.71669338677356,1.0
263.31787575150304,1.0
263.91905811623246,1.0
264.52024048096195,1.0
265.1214228456914,1.0
265.72260521042085,1.0
266.32378757515033,1.0
266.92496993987976,1.0
267.52615230460924,1.0
268.1273346693387,1.0
268.72851703406815,1.0
269.32969939879763,1.0
269.93088176352705,1.0
270.53206412825654,1.0
271.133246492986,1.0
271.73442885771544,1.0
272.3356112224449,1.0
272.93679358717435,1.0
