Illumination Mode,rear

Parameter,Lower Bound,Value,Upper Bound
EgShift,0.95,1.0,1.05
dDEAD,0.0,0.0,500.0
CIGS,300.0,499.99,2000.0
dSCR,0.0,499.99,2000.0
Ln,0.01,0.01,2000.0
Recomb,0.8,1.0,1.0

Wavelength,Experimental_IQE,IQE_fit,IQE_fit_SCR,IQE_fit_Ln,IQE_fit_metal_reflection,Absorbed_CIGS,ReTransmitted,Absorbed_Metal,Residual
310,0.19322473493722422,0.1479984701056279,0.1479961229048729,0.0,2.3472007549803197e-06,0.9999643943015046,8.908645486336434e-11,3.2698052856616158e-06,-0.045226264831596336
320,0.40392495044109067,0.33395576995539883,0.33394841568600764,0.0,7.354269391217815e-06,0.9999553000950048,3.8284034981425225e-10,1.002966176076705e-05,-0.06996918048569184
330,0.5462828674213261,0.5084929636306459,0.5084772887383124,0.0,1.5674892333477887e-05,0.9999442878883252,1.1190634884273821e-09,2.062525029057354e-05,-0.03778990379068026
340,0.6055037434397584,0.6325827017415452,0.6325552728803636,0.0,2.742886118155314e-05,0.9999295385103716,2.6852837067445263e-09,3.449557317116668e-05,0.02707895830178675
350,0.6590966906268688,0.7135642967958048,0.7135206930728362,0.0,4.360372296861812e-05,0.9999093342297307,5.855435992705245e-09,5.220734875928276e-05,0.05446760616893598
360,0.6771099817129859,0.7680222319356512,0.7679560400237672,0.0,6.619191188401273e-05,0.999882074682499,1.2189315686819728e-08,7.521587503323629e-05,0.09091225022266536
370,0.6912100694111285,0.8046436141225671,0.8045458924200961,0.0,9.772170247100112e-05,0.9998451863782897,2.4684415499942573e-08,0.00010548119301739104,0.11343354471143863
380,0.7032046198837955,0.8273261338123876,0.8271854371331975,0.0,0.00014069667919019686,0.9997944095858162,4.873832153583257e-08,0.0001457974492908053,0.12412151392859216
390,0.723877055548049,0.8529341497285092,0.8527310457704044,0.0,0.0002031039581048453,0.9997281455565651,9.651177036405665e-08,0.0002020037597204118,0.12905709418046019
400,0.7392339706030462,0.8699783358811228,0.8696877020045741,0.0,0.00029063387654869945,0.99963925206832,1.8943701586473637e-07,0.0002760446818612907,0.13074436527807665
410,0.7535359164128191,0.8780968008897052,0.8776832171416898,0.0,0.0004135837480153504,0.9995203207836603,3.6976934602345203e-07,0.000370749340948708,0.12456088447688607
420,0.7656879880752048,0.8820013568549562,0.8814182430938359,0.0,0.0005831137611202981,0.9993580625402168,7.152204066184553e-07,0.0004972779246372184,0.1163133687797514
430,0.7765470383215143,0.8827609105066678,0.8819435412157912,0.0,0.0008173692908766194,0.9991374255125618,1.3754451252744115e-06,0.0006653640482069102,0.10621387218515355
440,0.7871706208522509,0.8809164026605799,0.8797786699674756,0.0,0.0011377326931043398,0.9988338243824364,2.627284830316775e-06,0.0008912500545897755,0.09374578180832904
450,0.798412003020797,0.878241030161912,0.8766600832602274,0.0,0.001580946901684628,0.9984211178900468,5.01135691677527e-06,0.0011929184811711663,0.07982902714111506
460,0.8044158527038571,0.874450702036788,0.8722623175405881,0.0,0.002188384496199878,0.9978549845051378,9.52441847119082e-06,0.0015984035447407666,0.07003484933293092
470,0.8173444907284367,0.8695245073109708,0.8665012233913363,0.0,0.0030232839196344835,0.997080075573158,1.8075432284961803e-05,0.0021392272567442383,0.05218001658253402
480,0.8221608594284111,0.8641427066794463,0.8599744043455521,0.0,0.004168302333894189,0.9960178524850786,3.425271415602024e-05,0.0028642206063977257,0.041981847251035154
490,0.8296413857303121,0.8574531416760975,0.851719245531596,0.0,0.005733896144501614,0.9945557889439046,6.481865566191615e-05,0.003829519668240519,0.027811755945785444
500,0.8309854717426771,0.8519980940600484,0.8453636661501659,0.0,0.006634427909882612,0.9937682727114168,8.647214315576922e-05,0.004297443796795758,0.021012622317371332
510,0.8368837089471776,0.8463486661386027,0.8388820738902061,0.0,0.0074665922483965995,0.9930619231009931,0.00010912571075563162,0.004684708150641752,0.00946495719142515
520,0.8394836199855793,0.8408916525309434,0.8315695605414946,0.0,0.009322091989448915,0.9914093974340262,0.00017002947242960198,0.005675217996626959,0.0014080325453641462
530,0.8450517967522574,0.8346344142257954,0.8223083843821071,0.0,0.012326029843688325,0.9886132191227788,0.0002993840499325747,0.007347441724272134,-0.01041738252646196
540,0.8440474072709211,0.8314112375524977,0.818666339256193,0.0,0.012744898296304678,0.9883534077400852,0.00031863915025866874,0.007404193297243623,-0.012636169718423407
550,0.8458394978465507,0.8266028328569806,0.81092742099039,0.0,0.01567541186659056,0.985674228972626,0.00048482625963490927,0.008921010883384579,-0.019236664989570107
560,0.8428612269902056,0.823452784665869,0.8069838154910084,0.0,0.01646896917486062,0.9850657191867384,0.0005339468215627258,0.009160618512568284,-0.019408442324336583
570,0.8429644933552799,0.8210094973823919,0.8039218553936073,0.0,0.01708764198878463,0.9846578142465053,0.0005727225808594095,0.009284500036748602,-0.02195499597288797
580,0.8417034439328023,0.8167859364678799,0.7967361320259553,0.0,0.020049804441924654,0.9819777330792551,0.0007935496649960772,0.01069060386712399,-0.024917507464922384
590,0.8382768851077989,0.813851915138094,0.7918229607561278,0.0,0.022028954381966198,0.9803091297062433,0.0009590557524516525,0.011484909109454261,-0.02442496996970489
600,0.8414134751353879,0.8126663674866141,0.7893973722439077,0.0,0.023268995242706397,0.9794554303228975,0.0010662121907215106,0.011835890322664425,-0.02874710764877375
610,0.8452575957177232,0.8093347002152559,0.782161979156188,0.0,0.027172721059067918,0.9759872325810625,0.001465880826858257,0.013556518957885738,-0.0359228955024673
620,0.8446295944349392,0.8077636198657342,0.7782720061707697,0.0,0.029491613694964492,0.9741348818412423,0.0017282284289701917,0.014387421705295668,-0.03686597456920504
630,0.8406763298040886,0.8070176193713594,0.7750148872634032,0.0,0.032002732107956185,0.9721643046424644,0.0020368766602287553,0.01528773396841187,-0.033658710432729166
640,0.8349068869237191,0.8052994339449941,0.76990772292515,0.0,0.03539171101984412,0.969308083735652,0.0025043062829961894,0.01658240977200967,-0.029607452978724913
650,0.8300300613316128,0.8050729848028474,0.7680079956121089,0.0,0.037064989190738515,0.9682339232306902,0.0027398065190249775,0.016965578678127605,-0.024957076528765443
660,0.8238056471832993,0.8046657222463979,0.7646505765974241,0.0,0.04001514564897378,0.9659425658507756,0.0032011419086974842,0.017954425844904708,-0.01913992493690142
670,0.8216659261146222,0.8039391050569296,0.7601909632740835,0.0,0.04374814178284605,0.9626882844921069,0.0038590305993134685,0.019449394343756914,-0.017726821057692632
680,0.8165753074873786,0.8032955833626273,0.7561191716292273,0.0,0.04717641173340008,0.9597209801311924,0.004521240487828357,0.02076645614954435,-0.013279724124751313
690,0.8112741607614068,0.8023140199388084,0.7516209414257116,0.0,0.050693078513096734,0.9566134920854743,0.005264462296912475,0.022098087764279194,-0.00896014082259844
700,0.7998804066912127,0.801990429743719,0.7478548071520501,0.0,0.054135622591668944,0.9536474165931733,0.0060477156954757425,0.02336263456080523,0.0021100230525062935
710,0.8020221495561292,0.8021418606256734,0.7453759667559791,0.0,0.05676589386969434,0.9514737778782749,0.00668039389002091,0.024271965484305817,0.00011971106954422606
720,0.8031827153501128,0.8017600544752682,0.7415933911291931,0.0,0.06016666334607512,0.9483957943079239,0.007571109767627677,0.02558109575710406,-0.0014226608748445502
730,0.8050043182491645,0.8000075980636455,0.7362125591568033,0.0,0.06379503890684221,0.9448400922078461,0.008613334158555398,0.02699190777779917,-0.004996720185518999
740,0.810378154673018,0.7965451625396023,0.727093060853478,0.0,0.06945210168612424,0.9387869054222384,0.010438984449668343,0.029394493010729293,-0.013832992133415711
750,0.808672391735094,0.7919068600214737,0.7157721217106257,0.0,0.07613473831084809,0.9311428437768318,0.012910895086222772,0.032334684892303484,-0.016765531713620274
760,0.7983594236545091,0.7607134344990037,0.6554925882868706,0.0,0.1052208462121331,0.8870336498992955,0.02936488289833129,0.04834820260266497,-0.03764598915550532
770,0.7593600564795306,0.670742684843237,0.525741175941009,0.0,0.14500150890222796,0.7708196105545166,0.0866976198372478,0.08264593531951524,-0.08861737163629368
780,0.6097343116667397,0.49846903847207996,0.3478584671000058,0.0,0.15061057137207418,0.5643055297562256,0.21345132573284353,0.12893703579507648,-0.11126527319465979
790,0.34053379993908117,0.29925147471486885,0.19028839550894497,0.0,0.1089630792059239,0.3349864714392378,0.3731245407048778,0.16952089458025335,-0.041282325224212324
800,0.1334847239034098,0.14792788859681952,0.08895356055537111,0.0,0.058974328041448414,0.16453277986078096,0.4997145028859443,0.1950524285172362,0.014443164693409727
810,0.048146677378480766,0.06621262576153178,0.03875482514502764,0.0,0.02745780061650413,0.07337669461040494,0.5705052213184584,0.2072664429200098,0.018065948383051013
820,0.02012756710093137,0.026344963865851452,0.015223340350001925,0.0,0.011121623515849527,0.029151918364926227,0.6057081959043829,0.21226694022976564,0.006217396764920082
830,0.01476493622309136,0.010247205640678263,0.005888909583234367,0.0,0.004358296057443896,0.011327623543388595,0.6209955944339176,0.2137324999254041,-0.004517730582413098

Depth_in_CIGS,Collection_Efficiency
0.0,1.0
1.0019839679358717,1.0
2.0039679358717435,1.0
3.005951903807615,1.0
4.007935871743487,1.0
5.009919839679359,1.0
6.01190380761523,1.0
7.013887775551102,1.0
8.015871743486974,1.0
9.017855711422845,1.0
10.019839679358718,1.0
11.021823647294589,1.0
12.02380761523046,1.0
13.025791583166333,1.0
14.027775551102204,1.0
15.029759519038077,1.0
16.031743486973948,1.0
17.03372745490982,1.0
18.03571142284569,1.0
19.037695390781565,1.0
20.039679358717436,1.0
21.041663326653307,1.0
22.043647294589178,1.0
23.04563126252505,1.0
24.04761523046092,1.0
25.049599198396795,1.0
26.051583166332666,1.0
27.053567134268537,1.0
28.055551102204408,1.0
29.05753507014028,1.0
30.059519038076154,1.0
31.061503006012025,1.0
32.063486973947896,1.0
33.06547094188377,1.0
34.06745490981964,1.0
35.06943887775551,1.0
36.07142284569138,1.0
37.07340681362725,1.0
38.07539078156313,1.0
39.077374749499,1.0
40.07935871743487,1.0
41.08134268537074,1.0
42.083326653306614,1.0
43.085310621242485,1.0
44.087294589178356,1.0
45.08927855711423,1.0
46.0912625250501,1.0
47.09324649298597,1.0
48.09523046092184,1.0
49.09721442885772,1.0
50.09919839679359,1.0
51.10118236472946,1.0
52.10316633266533,1.0
53.1051503006012,1.0
54.107134268537074,1.0
55.109118236472945,1.0
56.111102204408816,1.0
57.11308617234469,1.0
58.11507014028056,1.0
59.117054108216436,1.0
60.11903807615231,1.0
61.12102204408818,1.0
62.12300601202405,1.0
63.12498997995992,1.0
64.12697394789579,1.0
65.12895791583166,1.0
66.13094188376753,1.0
67.1329258517034,1.0
68.13490981963928,1.0
69.13689378757515,1.0
70.13887775551102,1.0
71.14086172344689,1.0
72.14284569138276,1.0
73.14482965931863,1.0
74.1468136272545,1.0
75.14879759519039,1.0
76.15078156312626,1.0
77.15276553106213,1.0
78.154749498998,1.0
79.15673346693387,1.0
80.15871743486974,1.0
81.16070140280561,1.0
82.16268537074149,1.0
83.16466933867736,1.0
84.16665330661323,1.0
85.1686372745491,1.0
86.17062124248497,1.0
87.17260521042084,1.0
88.17458917835671,1.0
89.17657314629258,1.0
90.17855711422845,1.0
91.18054108216432,1.0
92.1825250501002,1.0
93.18450901803607,1.0
94.18649298597194,1.0
95.18847695390781,1.0
96.19046092184368,1.0
97.19244488977957,1.0
98.19442885771544,1.0
99.19641282565131,1.0
100.19839679358718,1.0
101.20038076152305,1.0
102.20236472945892,1.0
103.20434869739479,1.0
104.20633266533066,1.0
105.20831663326653,1.0
106.2103006012024,1.0
107.21228456913828,1.0
108.21426853707415,1.0
109.21625250501002,1.0
110.21823647294589,1.0
111.22022044088176,1.0
112.22220440881763,1.0
113.2241883767535,1.0
114.22617234468937,1.0
115.22815631262525,1.0
116.23014028056112,1.0
117.23212424849699,1.0
118.23410821643287,1.0
119.23609218436874,1.0
120.23807615230461,1.0
121.24006012024049,1.0
122.24204408817636,1.0
123.24402805611223,1.0
124.2460120240481,1.0
125.24799599198397,1.0
126.24997995991984,1.0
127.25196392785571,1.0
128.25394789579158,1.0
129.25593186372745,1.0
130.25791583166333,1.0
131.2598997995992,1.0
132.26188376753507,1.0
133.26386773547094,1.0
134.2658517034068,1.0
135.26783567134268,1.0
136.26981963927855,1.0
137.27180360721442,1.0
138.2737875751503,1.0
139.27577154308617,1.0
140.27775551102204,1.0
141.2797394789579,1.0
142.28172344689378,1.0
143.28370741482965,1.0
144.28569138276552,1.0
145.2876753507014,1.0
146.28965931863726,1.0
147.29164328657313,1.0
148.293627254509,1.0
149.29561122244488,1.0
150.29759519038078,1.0
151.29957915831665,1.0
152.30156312625252,1.0
153.3035470941884,1.0
154.30553106212426,1.0
155.30751503006013,1.0
156.309498997996,1.0
157.31148296593187,1.0
158.31346693386774,1.0
159.31545090180362,1.0
160.3174348697395,1.0
161.31941883767536,1.0
162.32140280561123,1.0
163.3233867735471,1.0
164.32537074148297,1.0
165.32735470941884,1.0
166.3293386773547,1.0
167.33132264529058,1.0
168.33330661322645,1.0
169.33529058116233,1.0
170.3372745490982,1.0
171.33925851703407,1.0
172.34124248496994,1.0
173.3432264529058,1.0
174.34521042084168,1.0
175.34719438877755,1.0
176.34917835671342,1.0
177.3511623246493,1.0
178.35314629258517,1.0
179.35513026052104,1.0
180.3571142284569,1.0
181.35909819639278,1.0
182.36108216432865,1.0
183.36306613226452,1.0
184.3650501002004,1.0
185.36703406813626,1.0
186.36901803607213,1.0
187.371002004008,1.0
188.37298597194388,1.0
189.37496993987975,1.0
190.37695390781562,1.0
191.3789378757515,1.0
192.38092184368736,1.0
193.38290581162326,1.0
194.38488977955913,1.0
195.386873747495,1.0
196.38885771543087,1.0
197.39084168336674,1.0
198.39282565130262,1.0
199.3948096192385,1.0
200.39679358717436,1.0
201.39877755511023,1.0
202.4007615230461,1.0
203.40274549098197,1.0
204.40472945891784,1.0
205.4067134268537,1.0
206.40869739478958,1.0
207.41068136272546,1.0
208.41266533066133,1.0
209.4146492985972,1.0
210.41663326653307,1.0
211.41861723446894,1.0
212.4206012024048,1.0
213.42258517034068,1.0
214.42456913827655,1.0
215.42655310621242,1.0
216.4285370741483,1.0
217.43052104208417,1.0
218.43250501002004,1.0
219.4344889779559,1.0
220.43647294589178,1.0
221.43845691382765,1.0
222.44044088176352,1.0
223.4424248496994,1.0
224.44440881763526,1.0
225.44639278557113,1.0
226.448376753507,1.0
227.45036072144288,1.0
228.45234468937875,1.0
229.45432865731462,1.0
230.4563126252505,1.0
231.45829659318636,1.0
232.46028056112223,1.0
233.4622645290581,1.0
234.46424849699397,1.0
235.46623246492987,1.0
236.46821643286574,1.0
237.47020040080162,1.0
238.4721843687375,1.0
239.47416833667336,1.0
240.47615230460923,1.0
241.4781362725451,1.0
242.48012024048097,1.0
243.48210420841684,1.0
244.4840881763527,1.0
245.48607214428858,1.0
246.48805611222446,1.0
247.49004008016033,1.0
248.4920240480962,1.0
249.49400801603207,1.0
250.49599198396794,1.0
251.4979759519038,1.0
252.49995991983968,1.0
253.50194388777555,1.0
254.50392785571142,1.0
255.5059118236473,1.0
256.50789579158317,1.0
257.50987975951904,1.0
258.5118637274549,1.0
259.5138476953908,1.0
260.51583166332665,1.0
261.5178156312625,1.0
262.5197995991984,1.0
263.52178356713426,1.0
264.52376753507014,1.0
265.525751503006,1.0
266.5277354709419,1.0
267.52971943887775,1.0
268.5317034068136,1.0
269.5336873747495,1.0
270.53567134268536,1.0
271.53765531062123,1.0
272.5396392785571,1.0
273.541623246493,1.0
274.54360721442885,1.0
275.5455911823647,1.0
276.5475751503006,1.0
277.54955911823646,1.0
278.55154308617233,1.0
279.5535270541082,1.0
280.5555110220441,1.0
281.55749498997994,1.0
282.5594789579158,1.0
283.5614629258517,1.0
284.56344689378756,1.0
285.5654308617234,1.0
286.5674148296593,1.0
287.56939879759517,1.0
288.57138276553104,1.0
289.5733667334669,1.0
290.5753507014028,1.0
291.57733466933865,1.0
292.5793186372745,1.0
293.5813026052104,1.0
294.58328657314627,1.0
295.58527054108214,1.0
296.587254509018,1.0
297.5892384769539,1.0
298.59122244488975,1.0
299.5932064128257,1.0
300.59519038076155,1.0
301.5971743486974,1.0
302.5991583166333,1.0
303.60114228456916,1.0
304.60312625250504,1.0
305.6051102204409,1.0
306.6070941883768,1.0
307.60907815631265,1.0
308.6110621242485,1.0
309.6130460921844,1.0
310.61503006012026,1.0
311.61701402805613,1.0
312.618997995992,1.0
313.6209819639279,1.0
314.62296593186375,1.0
315.6249498997996,1.0
316.6269338677355,1.0
317.62891783567136,1.0
318.63090180360723,1.0
319.6328857715431,1.0
320.634869739479,1.0
321.63685370741484,1.0
322.6388376753507,1.0
323.6408216432866,1.0
324.64280561122246,1.0
325.6447895791583,1.0
326.6467735470942,1.0
327.64875751503007,1.0
328.65074148296594,1.0
329.6527254509018,1.0
330.6547094188377,1.0
331.65669338677355,1.0
332.6586773547094,1.0
333.6606613226453,1.0
334.66264529058117,1.0
335.66462925851704,1.0
336.6666132264529,1.0
337.6685971943888,1.0
338.67058116232465,1.0
339.6725651302605,1.0
340.6745490981964,1.0
341.67653306613227,1.0
342.67851703406814,1.0
343.680501002004,1.0
344.6824849699399,1.0
345.68446893787575,1.0
346.6864529058116,1.0
347.6884368737475,1.0
348.69042084168336,1.0
349.69240480961923,1.0
350.6943887775551,1.0
351.696372745491,1.0
352.69835671342685,1.0
353.7003406813627,1.0
354.7023246492986,1.0
355.70430861723446,1.0
356.70629258517033,1.0
357.7082765531062,1.0
358.7102605210421,1.0
359.71224448897794,1.0
360.7142284569138,1.0
361.7162124248497,1.0
362.71819639278556,1.0
363.72018036072143,1.0
364.7221643286573,1.0
365.72414829659317,1.0
366.72613226452904,1.0
367.7281162324649,1.0
368.7301002004008,1.0
369.73208416833666,1.0
370.7340681362725,1.0
371.7360521042084,1.0
372.73803607214427,1.0
373.74002004008014,1.0
374.742004008016,1.0
375.7439879759519,1.0
376.74597194388775,1.0
377.7479559118236,1.0
378.7499398797595,1.0
379.75192384769537,1.0
380.75390781563124,1.0
381.7558917835671,1.0
382.757875751503,1.0
383.75985971943885,1.0
384.7618436873747,1.0
385.76382765531065,1.0
386.7658116232465,1.0
387.7677955911824,1.0
388.76977955911826,1.0
389.77176352705413,1.0
390.77374749499,1.0
391.7757314629259,1.0
392.77771543086175,1.0
393.7796993987976,1.0
394.7816833667335,1.0
395.78366733466936,1.0
396.78565130260523,1.0
397.7876352705411,1.0
398.789619238477,1.0
399.79160320641284,1.0
400.7935871743487,1.0
401.7955711422846,1.0
402.79755511022046,1.0
403.79953907815633,1.0
404.8015230460922,1.0
405.80350701402807,1.0
406.80549098196394,1.0
407.8074749498998,1.0
408.8094589178357,1.0
409.81144288577156,1.0
410.8134268537074,1.0
411.8154108216433,1.0
412.81739478957917,1.0
413.81937875751504,1.0
414.8213627254509,1.0
415.8233466933868,1.0
416.82533066132265,1.0
417.8273146292585,1.0
418.8292985971944,1.0
419.83128256513027,1.0
420.83326653306614,1.0
421.835250501002,1.0
422.8372344689379,1.0
423.83921843687375,1.0
424.8412024048096,1.0
425.8431863727455,1.0
426.84517034068136,1.0
427.84715430861723,1.0
428.8491382765531,1.0
429.851122244489,1.0
430.85310621242485,1.0
431.8550901803607,1.0
432.8570741482966,1.0
433.85905811623246,1.0
434.86104208416833,1.0
435.8630260521042,1.0
436.8650100200401,1.0
437.86699398797595,1.0
438.8689779559118,1.0
439.8709619238477,1.0
440.87294589178356,1.0
441.87492985971943,1.0
442.8769138276553,1.0
443.8788977955912,1.0
444.88088176352704,1.0
445.8828657314629,1.0
446.8848496993988,1.0
447.88683366733466,1.0
448.8888176352705,1.0
449.8908016032064,1.0
450.89278557114227,1.0
451.89476953907814,1.0
452.896753507014,1.0
